v0,r0,t0,w_wh,w_m,T_m,T_a,F_trac,F_drag,F_RR,F_net_tan,a_tan0,a_norm0,P_battery,P_battery_OL,P_battery_regen,Capacity,Pack Current,Energy Use,Energy Use OL,SoC Energy,SoC Capacity,Dissipated Power,Battery Temp,Heatsink Temp,Max Values
0,0,0,0,0,71.20799402,299.0735749,1308.283355,0,0,1308.283355,4.905,14.83024691,0,0,-12.10229731,17.7,0,0,0,100,100,0,23,23,0
1.7658,0.024525,0.1,2.145669291,86.05645624,71.20799402,299.0735749,1308.283355,0.103574103,26.16566709,1282.014113,4.806511681,14.83024691,0,0,-12.10229731,17.7,0,0,0,100,100,0,23,23,0.277074321
3.496144205,0.097607558,0.2,4.248255329,170.3849704,71.20799402,299.0735749,1308.283355,0.406019442,26.16566709,1281.711668,4.805377757,14.83024691,0,0,-12.10229731,17.7,0,0,0,100,100,0,23,23,0
5.226080198,0.218749564,0.3,6.350345336,254.6935903,71.20799402,299.0735749,1308.283355,0.90723604,26.16566709,1281.210452,4.803498602,14.83024691,0,0,-12.10229731,17.7,0,0,0,100,100,0,23,23,25.00182197
6.955339694,0.387935951,0.4,8.451613316,338.9692411,71.20799402,299.0735749,1308.283355,1.606959181,26.16566709,1280.510728,4.800875208,14.83024691,0,0,-12.10229731,17.7,0,0,0,100,100,0,23,23,0
8.683654769,0.605144208,0.5,10.5517337,423.1988655,71.20799402,299.0735749,1308.283355,2.504801142,26.16566709,1279.612886,4.79750903,14.83024691,0,0,-12.04097413,17.7,0,0,0,100,100,0,23,23,0
10.41075802,0.870344385,0.6,12.65038157,507.3694314,71.20799402,299.0735749,1308.283355,3.600251654,26.16566709,1278.517436,4.79340198,14.83024691,0,0,-12.04097413,17.7,0,0,0,100,100,0,23,23,0
12.13638273,1.183499118,0.7,14.74723283,591.4679406,71.20799402,299.0735749,1308.283355,4.892678534,26.16566709,1277.225009,4.788556429,14.83024691,0,0,-11.97721296,17.7,0,0,0,100,100,0,23,23,0
13.86026305,1.544563643,0.8,16.84196443,675.4814364,71.20799402,299.0735749,1308.283355,6.381328464,26.16566709,1275.736359,4.782975201,14.83024691,0,0,-11.91109874,17.7,0,0,0,100,100,0,23,23,0
15.58213412,1.953485826,0.9,18.93425454,759.3970115,71.20799402,299.0735749,1308.283355,8.065327937,26.16566709,1274.05236,4.776661571,14.83024691,0,0,-11.91109874,17.7,0,0,0,100,100,0,23,23,0
17.30173229,2.410206193,1,21.02378279,843.2018163,71.20799402,299.0735749,1308.283355,9.943684352,26.16566709,1272.174003,4.76961926,14.83024691,0,0,-11.84271242,17.7,0,0,0,100,100,0,23,23,0
19.01879522,2.914657963,1.1,23.11023041,926.8830663,71.20799402,299.0735749,1308.283355,12.01528727,26.16566709,1270.1024,4.761852431,14.83024691,0,0,-11.77213124,17.7,0,0,0,100,100,0,23,23,0
20.73306209,3.466767093,1.2,25.19328047,1010.42805,71.20799402,299.0735749,1308.283355,14.27890983,26.16566709,1267.838778,4.753365685,14.83024691,0,0,-11.69942898,17.7,0,0,0,100,100,0,23,23,0
22.44427374,4.066452313,1.3,27.27261804,1093.824137,71.20799402,299.0735749,1308.283355,16.73321026,26.16566709,1265.384477,4.744164052,14.83024691,0,0,-11.54794004,17.7,0,0,0,100,100,0,23,23,0
24.1521728,4.713625181,1.4,29.3479304,1177.058784,71.20799402,299.0735749,1308.283355,19.37673361,26.16566709,1262.740954,4.734252987,14.83024691,0,0,-11.4692853,17.7,0,0,0,100,100,0,23,23,0
25.85650388,5.408190135,1.5,31.41890721,1260.119546,71.20799402,299.0735749,1308.283355,22.2079136,26.16566709,1259.909774,4.723638361,14.83024691,0,0,-11.38877369,17.7,0,0,0,100,100,0,23,23,0
27.55701369,6.150044546,1.6,33.4852407,1342.994078,70.91694387,297.8511642,1302.935977,25.22507453,26.16566709,1251.545235,4.692278133,14.83024691,0,0,-11.36443314,17.7,0,0,0,100,100,0,23,23,0
29.24623381,6.938978539,1.7,35.5378558,1425.318405,66.76754821,280.4237025,1226.700361,28.41240847,26.16566709,1172.122285,4.394506579,14.83024691,0,0,-11.39265444,17.7,0,0,0,100,100,0,23,23,0
30.82825618,7.773346455,1.8,37.46021214,1502.418439,63.39544982,266.2608892,1164.745797,31.56938146,26.16566709,1107.010749,4.1503912,14.83024691,0,0,-11.44590797,17.7,0,0,0,100,100,0,23,23,0
32.32239701,8.650438861,1.9,39.27578134,1575.235556,60.34759166,253.459885,1108.748403,34.70365962,26.16566709,1047.879076,3.928695455,14.83024691,24.80946417,11.45025714,0,17.7,78.29336854,0.000689152,0.000318063,99.99986846,100,6.810946175,23,23,0
33.73672738,9.5679267,2,40.99437078,1644.163101,57.84469615,242.9477238,1062.763446,37.80716021,26.16566709,998.790619,3.744653609,14.83024691,24.83389687,11.44106737,0,17.69782518,78.36570263,0.001378982,0.00063587,99.9997368,99.98771291,6.823537054,23.00824653,23,0
35.08480268,10.52378128,2.1,42.63245197,1709.861698,55.78799584,234.3095825,1024.976302,40.88897566,26.16566709,957.9216588,3.591428202,0,24.91996558,11.43536344,0,17.69564836,78.62044705,0.002071204,0.000953519,99.99960467,99.97541446,6.867971882,23.01650791,23.00000591,0
36.37771683,11.51631628,2.2,44.20350543,1772.872011,53.64230369,225.2976755,985.5541361,43.95811191,26.16566709,915.4303571,3.432120332,0,24.85785427,11.43110715,0,17.69346446,78.43662156,0.002761699,0.00127105,99.99947288,99.96307603,6.83589289,23.02482269,23.00001774,0
37.61328015,12.54396901,2.3,45.70487041,1833.087324,52.08422848,218.7537596,956.9280824,46.99488288,26.16566709,883.7675324,3.313410456,0,24.96689852,11.42780331,0,17.69128566,78.75931507,0.003455224,0.001588489,99.99934051,99.95076646,6.892255233,23.03309825,23.00003553,0
38.80610791,13.6053494,2.4,47.1543063,1891.219916,50.41083962,211.7255264,926.183405,50.02283811,26.16566709,849.9948998,3.186790514,0,24.94370536,11.4251852,0,17.6890979,78.69069356,0.004148105,0.001905855,99.99920826,99.93840624,6.880250281,23.04144165,23.00005923,0
39.9533525,14.6992308,2.5,48.54835289,1947.131006,49.03241822,205.9361565,900.8580775,53.02425901,26.16566709,821.6681514,3.080588214,0,24.99053308,11.42308364,0,17.68691205,78.82923491,0.004842287,0.002223163,99.99907576,99.92605679,6.904498086,23.04977012,23.0000889,0
41.06236426,15.82444909,2.6,49.89594179,2001.178816,47.54658737,199.6956669,873.5593479,56.00877276,26.16566709,791.3849081,2.967050647,0,23.87191803,11.42138195,0,17.68472235,75.51145321,0.005505395,0.002540424,99.99894919,99.9136856,6.335532851,23.05812756,23.00012452,0
42.13050249,16.97990557,2.7,51.19386421,2053.234649,46.48999653,195.2579854,854.146918,58.96053725,26.16566709,769.0207136,2.883203082,0,23.95929111,11.4199954,0,17.68262481,75.77122769,0.006170931,0.002857646,99.99882216,99.90183509,6.379198828,23.06579571,23.0001661,0
43.1684556,18.16461332,2.8,52.4551079,2103.819408,45.31515908,190.3236681,832.5619778,61.90150062,26.16566709,744.4948101,2.791250864,0,23.94119852,11.41837146,0,17.68052005,75.71744424,0.006835965,0.003174823,99.99869523,99.88994381,6.370145958,23.07351638,23.00021316,0
44.17330591,19.37769334,2.9,53.67612753,2152.790897,44.35441366,186.2885374,814.9104871,64.81685579,26.16566709,723.9279642,2.714141896,0,23.98999974,11.46967348,0,17.67841679,75.86250407,0.007502353,0.003493425,99.99856803,99.87806097,6.394577248,23.08122571,23.00026571,0
45.15039699,20.61830032,3,54.86341619,2200.409538,43.28378988,181.7919175,795.240234,67.7160007,26.16566709,701.3585662,2.629524984,14.83024691,23.69280963,11.53924869,0,17.6763095,74.97859972,0.008160487,0.003813959,99.99844242,99.86615537,6.246433795,23.08896426,23.00032375,0
46.09702599,21.88562564,3.1,56.01368959,2246.543606,42.40641576,178.1069462,779.1204995,70.58525185,26.16566709,682.3695806,2.558331711,14.83024691,23.71030778,11.58099923,0,17.67422676,75.03067718,0.008819107,0.004135654,99.99831671,99.85438848,6.25511391,23.09652308,23.0003873,0
47.0180254,23.17889025,3.2,57.13281982,2291.428613,41.56390419,174.5683976,763.6412843,73.43395631,26.16566709,664.0416609,2.489616898,14.83024691,23.71471653,11.63712291,0,17.67214258,75.04379768,0.009477849,0.004458907,99.99819097,99.84261342,6.257301744,23.10409206,23.00045622,0
47.91428748,24.49739459,3.3,58.22189108,2335.108044,40.88696764,171.7252641,751.2041298,76.26024968,26.16566709,648.778213,2.432391365,14.83024691,23.78315742,11.67044294,0,17.67005803,75.24744372,0.010138492,0.004783086,99.99806488,99.8308363,6.291308651,23.11166332,23.00053052,0
48.78994838,25.84050898,3.4,59.2859293,2377.783473,40.1031919,168.433406,736.8040506,79.07311932,26.16566709,631.5652642,2.367856787,14.83024691,23.76490627,11.71465582,0,17.66796782,75.19314381,0.010798628,0.005108493,99.99793888,99.81902722,6.282232084,23.11927541,23.00061019,0
49.64237682,27.20762461,3.5,60.32173717,2419.326667,38.25841812,160.6853561,702.9105692,81.86029171,26.16566709,594.8846104,2.230334127,14.83024691,23.09044672,11.75236103,0,17.66587912,73.18323379,0.01144003,0.005434948,99.99781645,99.80722667,5.950873009,23.12687615,23.00069527,0
50.4452971,28.59773119,3.6,61.29738639,2458.457075,6.024992761,25.3049696,110.6954051,84.52973796,26.16566709,0,0,14.83024691,4.055785671,11.78044223,0,17.66384625,13.53689086,0.01155269,0.005762182,99.99779495,99.79574154,0.203608238,23.13407533,23.00078573,0
50.4452971,29.99898944,3.7,61.29738639,2458.457075,6.024992761,25.3049696,110.6954051,84.52973796,26.16566709,0,0,14.83024691,4.055785671,11.78544705,0,17.66347023,13.53689086,0.011665351,0.006089556,99.99777345,99.79361711,0.203608238,23.13431552,23.00088129,0
50.4452971,31.40024769,3.8,61.29738639,2458.457075,6.024992761,25.3049696,110.6954051,84.52973796,26.16566709,0,0,14.83024691,4.055785671,11.79215742,0,17.6630942,13.53689086,0.011778012,0.006417116,99.99775194,99.79149267,0.203608238,23.13455571,23.00097695,0
50.4452971,32.80150595,3.9,61.29738639,2458.457075,6.024992761,25.3049696,110.6954051,84.52973796,26.16566709,0,0,14.83024691,4.055785671,11.79801365,0,17.66271818,13.53689086,0.011890673,0.006744838,99.99773044,99.78936824,0.203608238,23.13479589,23.00107271,0
50.4452971,34.2027642,4,61.29738639,2458.457075,6.024992761,25.3049696,110.6954051,84.52973796,26.16566709,0,0,14.83024691,4.055785671,11.80311891,0,17.66234215,13.53689086,0.012003333,0.007072703,99.99770894,99.78724381,0.203608238,23.13503606,23.00116858,0
50.4452971,35.60402245,4.1,61.29738639,2458.457075,38.74166378,162.7149879,711.7890983,84.52973796,26.16566709,601.0936932,2.253613145,0,23.75841721,11.80756479,0,17.66196613,75.17383677,0.012663289,0.007400691,99.99758297,99.78511937,6.279006372,23.13527623,23.00126455,0
51.25659784,37.01654877,4.2,62.28321891,2497.995905,38.15288469,160.2421157,700.9716348,87.27054883,26.16566709,587.5354189,2.202780628,0,23.78384355,11.81143242,0,17.65987797,75.24948497,0.013323952,0.007728786,99.99745687,99.77332185,6.291649986,23.14287234,23.00136062,0
52.04959886,38.45135706,4.3,63.24681499,2536.642897,37.58173373,157.8432816,690.4780475,89.99179779,26.16566709,574.3205826,2.153235725,0,23.80051003,11.81372539,0,17.6577877,75.29906602,0.013985077,0.008056945,99.99733068,99.76151245,6.299943715,23.15048339,23.00146207,0
52.82476372,39.90794543,4.4,64.18873788,2574.420641,37.02743087,155.5152096,680.2940055,92.69221934,26.16566709,561.436119,2.104929451,0,23.80900165,11.8167846,0,17.65569606,75.3243262,0.014646438,0.008385189,99.99720445,99.74969527,6.304171241,23.15810413,23.0015689,0
53.58253833,41.38582462,4.5,65.10952941,2611.350869,36.48924147,153.2548142,670.4060112,95.37064522,26.16566709,548.8696989,2.057815582,0,23.56672463,11.81943875,0,17.65360372,74.60322217,0.015301069,0.008713507,99.9970795,99.73787412,6.184045287,23.16572964,23.00168112,0
54.32335194,42.88451754,4.6,66.00971121,2647.454501,35.96647296,151.0591864,660.8013405,98.02599819,26.16566709,536.6096753,2.011850451,0,23.56062845,11.82173922,0,17.65153141,74.58506707,0.015955531,0.009041888,99.99695459,99.72616615,6.181035811,23.17320934,23.00179872,0
55.0476181,44.40355879,4.7,66.88978577,2682.751692,0,-731.1660009,-3198.451447,100.6572864,26.16566709,-3325.274401,-12.46707823,14.83024691,0,11.83218257,0,17.6494596,0,0.015955531,0.00937056,99.99695459,99.71446102,0,23.18068504,23.0019216,0
50.55946993,45.87032391,4.8,61.43612075,2464.0213,6.045842457,25.39253832,111.0784703,84.91280324,26.16566709,0,0,14.83024691,4.078048141,11.84730813,0,17.6494596,13.61030639,0.01606881,0.009699652,99.99693296,99.71446102,0.205822711,23.18067656,23.00204976,0
50.55946993,47.27475363,4.9,61.43612075,2464.0213,6.045842457,25.39253832,111.0784703,84.91280324,26.16566709,0,0,14.83024691,4.078048141,11.85774971,0,17.64908154,13.61030639,0.016182089,0.010029034,99.99691134,99.71232507,0.205822711,23.18091728,23.00217781,0
50.55946993,48.67918335,5,61.43612075,2464.0213,6.045842457,25.39253832,111.0784703,84.91280324,26.16566709,0,0,14.83024691,4.078048141,11.8637823,0,17.64870347,13.61030639,0.016295369,0.010358584,99.99688972,99.71018911,0.205822711,23.181158,23.00230594,0
50.55946993,50.08361307,5.1,61.43612075,2464.0213,6.045842457,25.39253832,111.0784703,84.91280324,26.16566709,0,0,14.83024691,4.078048141,11.86566021,0,17.64832541,13.61030639,0.016408648,0.010688185,99.9968681,99.70805316,0.205822711,23.18139871,23.00243416,0
50.55946993,51.48804279,5.2,61.43612075,2464.0213,6.045842457,25.39253832,111.0784703,84.91280324,26.16566709,0,0,14.83024691,0,0,-11.86374202,17.64794734,0,0.016408648,0.010688185,99.9968681,99.7059172,0,23.18163942,23.00256245,0
50.55946993,52.89247251,5.3,61.43612075,2464.0213,6.045842457,25.39253832,111.0784703,84.91280324,26.16566709,0,0,14.83024691,4.078048141,11.85132614,0,17.64794734,13.61030639,0.016521927,0.011017389,99.99684648,99.7059172,0.205822711,23.18163092,23.00269083,0
50.55946993,54.29690223,5.4,61.43612075,2464.0213,6.045842457,25.39253832,111.0784703,84.91280324,26.16566709,0,0,14.83024691,4.078048141,11.84916285,0,17.64756928,13.61030639,0.016635206,0.011346532,99.99682486,99.70378125,0.205822711,23.18187162,23.0028191,0
50.55946993,55.70133195,5.5,61.43612075,2464.0213,6.045842457,25.39253832,111.0784703,84.91280324,26.16566709,0,0,14.83024691,4.078048141,11.84746621,0,17.64719122,13.61030639,0.016748485,0.011675628,99.99680324,99.70164529,0.205822711,23.18211233,23.00294746,0
50.55946993,57.10576167,5.6,61.43612075,2464.0213,6.045842457,25.39253832,111.0784703,84.91280324,26.16566709,0,0,14.83024691,4.078048141,11.84607945,0,17.64681315,13.61030639,0.016861764,0.012004686,99.99678161,99.69950934,0.205822711,23.18235303,23.00307589,0
50.55946993,58.51019139,5.7,61.43612075,2464.0213,38.74166378,162.7149879,711.7890983,84.91280324,26.16566709,600.710628,2.252176961,0,23.81268812,11.8449273,0,17.64643509,75.3352921,0.017523228,0.012333712,99.99665536,99.69737338,6.306006929,23.18259372,23.0032044,0
51.37025364,59.925882,5.8,62.42132502,2503.534933,38.03726989,159.7565335,698.8474783,87.65800338,26.16566709,585.0238079,2.193364127,0,23.7661871,11.84426515,0,17.64434244,75.19695463,0.0181834,0.012662719,99.99652936,99.68555052,6.282868873,23.19022036,23.003333,0
52.15986473,61.36380031,5.9,63.38080189,2542.016715,37.46954945,157.3721077,688.416919,90.37349272,26.16566709,571.8777591,2.144077121,0,23.78157835,11.84340404,0,17.64225364,75.24274594,0.018843999,0.012991703,99.99640327,99.67374936,6.29052313,23.19781863,23.00346697,0
52.93173249,62.82340582,6,64.31871839,2579.633775,36.91852666,155.057812,678.2931407,93.06799807,26.16566709,559.0594756,2.096018969,0,23.78889584,11.84267655,0,17.64016356,75.26451543,0.019504802,0.013320666,99.99627714,99.66194102,6.294163648,23.20542581,23.00360629,0
53.68629932,64.30421182,6.1,65.23561208,2616.407672,36.48924147,153.2548142,670.4060112,95.74036768,26.16566709,548.4999764,2.056429423,0,23.61285407,11.84206017,0,17.63807288,74.74058371,0.020160714,0.013649612,99.99615195,99.65012926,6.206838726,23.21303705,23.00375096,0
54.42661391,65.80578006,6.2,66.13518751,2652.486985,35.96647296,151.0591864,660.8013405,98.39902299,26.16566709,536.2366505,2.010451911,0,23.60591445,11.84153683,0,17.63599675,74.71992123,0.020816434,0.013978544,99.99602679,99.63839973,6.203407366,23.2205422,23.00390098,0
55.1503766,67.32768271,6.3,67.01465028,2687.759639,35.45847193,148.9255821,651.4679883,101.0334351,26.16566709,524.2688861,1.965582515,0,23.59240845,11.85018032,0,17.6339212,74.67970563,0.021471779,0.014307715,99.99590171,99.62667344,6.196731593,23.22804284,23.00405628,0
55.8579863,68.86946552,6.4,67.87448516,2722.245075,0,-315.7173546,-1381.09079,103.6426968,26.16566709,-1510.899154,-5.664644684,14.83024691,0,11.85955883,0,17.63184676,0,0.021471779,0.014637148,99.99590171,99.61495346,0,23.23553506,23.00421684,0
53.81871422,70.39275303,6.5,65.39651285,2622.860927,6.660908484,27.97581563,122.378896,96.21322894,26.16566709,0,0,14.83024691,4.706888473,11.86459006,0,17.63184676,15.6801484,0.021602526,0.014966719,99.99587675,99.61495346,0.273185615,23.23552408,23.00438266,0
53.81871422,71.88771731,6.6,65.39651285,2622.860927,6.660908484,27.97581563,122.378896,96.21322894,26.16566709,0,0,14.83024691,4.706888473,11.86552376,0,17.6314112,15.6801484,0.021733273,0.015296317,99.9958518,99.61249267,0.273185615,23.23584387,23.00454835,0
53.81871422,73.3826816,6.7,65.39651285,2622.860927,6.660908484,27.97581563,122.378896,96.21322894,26.16566709,0,0,14.83024691,4.706888473,11.86259156,0,17.63097564,15.6801484,0.021864019,0.015625834,99.99582684,99.61003188,0.273185615,23.23616365,23.00471415,0
53.81871422,74.87764588,6.8,65.39651285,2622.860927,6.660908484,27.97581563,122.378896,96.21322894,26.16566709,0,0,14.83024691,4.706888473,11.85600868,0,17.63054008,15.6801484,0.021994766,0.015955167,99.99580188,99.6075711,0.273185615,23.23648343,23.00488006,0
53.81871422,76.37261017,6.9,65.39651285,2622.860927,6.660908484,27.97581563,122.378896,96.21322894,26.16566709,0,0,14.83024691,4.706888473,11.84597547,0,17.63010452,15.6801484,0.022125513,0.016284222,99.99577693,99.60511031,0.273185615,23.2368032,23.00504608,0
53.81871422,77.86757445,7,65.39651285,2622.860927,6.660908484,27.97581563,122.378896,96.21322894,26.16566709,0,0,14.83024691,4.706888473,11.85675668,0,17.62966896,15.6801484,0.02225626,0.016613577,99.99575197,99.60264952,0.273185615,23.23712296,23.00521221,0
53.81871422,79.36253873,7.1,65.39651285,2622.860927,6.660908484,27.97581563,122.378896,96.21322894,26.16566709,0,0,14.83024691,4.706888473,11.85846458,0,17.6292334,15.6801484,0.022387007,0.016942978,99.99572702,99.60018873,0.273185615,23.23744272,23.00537844,0
53.81871422,80.85750302,7.2,65.39651285,2622.860927,6.660908484,27.97581563,122.378896,96.21322894,26.16566709,0,0,14.83024691,4.706888473,11.85965111,0,17.62879785,15.6801484,0.022517754,0.017272413,99.99570206,99.59772794,0.273185615,23.23776246,23.00554479,0
53.81871422,82.3524673,7.3,65.39651285,2622.860927,36.38347555,152.8105973,668.4628054,96.21322894,26.16566709,546.0839093,2.047371134,0,23.60447969,11.86053196,0,17.62836229,74.71564918,0.023173434,0.017601872,99.99557691,99.59526715,6.202698036,23.2380822,23.00571124,0
54.55576783,83.85766844,7.4,66.29212577,2658.781315,35.86371161,150.6275888,658.9133367,98.86657725,26.16566709,533.8810924,2.001620481,0,23.59632827,11.86120849,0,17.62628685,74.69137758,0.023828888,0.01793135,99.99545181,99.58354153,6.198668761,23.24558125,23.00587781,0
55.2763512,85.38311454,7.5,67.16772528,2693.899025,35.35858891,148.5060734,649.6328672,101.4955238,26.16566709,521.9716763,1.956969844,0,23.58169589,11.8617399,0,17.62421209,74.64780599,0.024483935,0.018260843,99.99532678,99.57181972,6.191438821,23.25307506,23.00604963,0
55.98086034,86.92835359,7.6,68.02379258,2728.233355,34.96462135,146.8514097,642.394618,104.0991759,26.16566709,512.1297749,1.920070707,0,23.62524121,11.8621643,0,17.62213854,74.77746429,0.025140191,0.018590348,99.99520152,99.56010475,6.212965739,23.26055977,23.0062267,0
56.6720858,88.49297784,7.7,68.86371852,2761.920303,34.48433809,144.83422,633.5705161,106.6857828,26.16566709,500.7190662,1.877289817,0,23.5989313,11.86250769,0,17.62006139,74.69912847,0.025795717,0.018919862,99.9950764,99.54836943,6.199955326,23.2680702,23.006409,0
57.34791013,90.07658889,7.8,69.68493017,2794.856676,34.10950833,143.259935,626.68388,109.2454471,26.16566709,491.2727659,1.841873863,0,23.62991541,11.86104006,0,17.61798641,74.79138037,0.026452104,0.019249335,99.99495112,99.5366464,6.215278419,23.27556453,23.00659656,0
